Time (s) 50 short 1,Angular Velocity (rad/s) 50 short 1,Time (s) 50 short 2,Angular Velocity (rad/s) 50 short 2,Time (s) 50 short 3,Angular Velocity (rad/s) 50 short 3,Time (s) 50 short 4,Angular Velocity (rad/s) 50 short 4,Time (s) 50 short 5,Angular Velocity (rad/s) 50 short 5
0.05,2.793,0.05,2.967,0.05,2.618,0.05,4.014,0.05,4.363
0.1,2.851,0.1,3.258,0.1,2.793,0.1,4.131,0.1,4.538
0.15,2.967,0.15,3.432,0.15,2.967,0.15,4.247,0.15,4.712
0.2,3.083,0.2,3.549,0.2,3.142,0.2,4.363,0.2,4.887
0.25,3.258,0.25,3.665,0.25,3.316,0.25,4.538,0.25,5.061
0.3,3.432,0.3,3.782,0.3,3.432,0.3,4.712,0.3,5.178
0.35,3.607,0.35,3.898,0.35,3.549,0.35,4.887,0.35,5.294
0.4,3.782,0.4,4.072,0.4,3.723,0.4,5.061,0.4,5.469
0.45,3.898,0.45,4.305,0.45,3.956,0.45,5.178,0.45,5.701
0.5,4.072,0.5,4.48,0.5,4.131,0.5,5.294,0.5,5.876
0.55,4.247,0.55,4.596,0.55,4.247,0.55,5.411,0.55,5.992
0.6,4.422,0.6,4.712,0.6,4.363,0.6,5.585,0.6,6.109
0.65,4.596,0.65,4.887,0.65,4.538,0.65,5.76,0.65,6.225
0.7,4.712,0.7,5.061,0.7,4.712,0.7,5.934,0.7,6.341
0.75,4.829,0.75,5.236,0.75,4.829,0.75,6.109,0.75,6.516
0.8,4.945,0.8,5.411,0.8,4.945,0.8,6.283,0.8,6.69
0.85,5.12,0.85,5.527,0.85,5.12,0.85,6.458,0.85,6.865
0.9,5.352,0.9,5.643,0.9,5.352,0.9,6.574,0.9,7.039
0.95,5.527,0.95,5.818,0.95,5.527,0.95,6.69,0.95,7.214
1,5.643,1,6.05,1,5.643,1,6.807,1,7.33
1.05,5.76,1.05,6.225,1.05,5.76,1.05,6.981,1.05,7.447
1.1,5.934,1.1,6.283,1.1,5.876,1.1,7.156,1.1,7.621
1.15,6.109,1.15,6.341,1.15,5.992,1.15,7.33,1.15,7.796
1.2,6.225,1.2,6.516,1.2,6.167,1.2,7.505,1.2,7.912
1.25,6.341,1.25,6.749,1.25,6.4,1.25,7.679,1.25,8.029
1.3,6.516,1.3,6.923,1.3,6.574,1.3,7.854,1.3,8.203
1.35,6.69,1.35,7.039,1.35,6.69,1.35,7.97,1.35,8.378
1.4,6.865,1.4,7.214,1.4,6.807,1.4,8.087,1.4,8.552
1.45,6.981,1.45,7.389,1.45,6.981,1.45,8.203,1.45,8.727
1.5,7.156,1.5,7.563,1.5,7.156,1.5,8.319,1.5,8.901
1.55,7.33,1.55,7.679,1.55,7.33,1.55,8.494,1.55,9.018
1.6,7.447,1.6,7.796,1.6,7.505,1.6,8.668,1.6,9.134
1.65,7.621,1.65,7.97,1.65,7.621,1.65,8.843,1.65,9.25
1.7,7.796,1.7,8.145,1.7,7.738,1.7,8.959,1.7,9.425
1.75,7.97,1.75,8.319,1.75,7.854,1.75,9.076,1.75,9.599
1.8,8.087,1.8,8.436,1.8,8.029,1.8,9.25,1.8,9.716
1.85,8.203,1.85,8.552,1.85,8.203,1.85,9.425,1.85,9.832
1.9,8.378,1.9,8.668,1.9,8.378,1.9,9.599,1.9,10.007
1.95,8.552,1.95,8.785,1.95,8.552,1.95,9.774,1.95,10.239
2,8.668,2,8.959,2,8.668,2,9.948,2,10.414
2.05,8.785,2.05,9.192,2.05,8.785,2.05,10.065,2.05,10.472
2.1,8.901,2.1,9.367,2.1,8.901,2.1,10.181,2.1,10.53
2.15,9.076,2.15,9.483,2.15,9.076,2.15,10.297,2.15,10.705
2.2,9.25,2.2,9.599,2.2,9.25,2.2,10.414,2.2,10.937
2.25,9.425,2.25,9.774,2.25,9.425,2.25,10.53,2.25,11.112
2.3,9.599,2.3,9.948,2.3,9.599,2.3,10.705,2.3,11.228
2.35,9.774,2.35,10.065,2.35,9.774,2.35,10.937,2.35,11.345
2.4,9.948,2.4,10.181,2.4,9.948,2.4,11.112,2.4,11.519
2.45,10.065,2.45,10.297,2.45,10.065,2.45,11.228,2.45,11.694